lambda_in (m),xabs1,xabs2,xabs3,xabs4
0.0000004,6.1992E-23,6.1929E-23,3.7752E-23,3.7627E-23
0.000000405,6.1324E-23,6.1261E-23,3.7299E-23,3.7171E-23
0.00000041,6.0653E-23,6.059E-23,3.6896E-23,3.6767E-23
0.000000415,5.9952E-23,5.9889E-23,3.6494E-23,3.6364E-23
0.00000042,5.92E-23,5.9137E-23,3.6095E-23,3.5963E-23
0.000000425,5.8423E-23,5.8361E-23,3.5723E-23,3.559E-23
0.00000043,5.7651E-23,5.759E-23,3.5399E-23,3.5265E-23
0.000000435,5.6902E-23,5.684E-23,3.5242E-23,3.5106E-23
0.00000044,5.6159E-23,5.6098E-23,3.533E-23,3.5191E-23
0.000000445,5.541E-23,5.5349E-23,3.5545E-23,3.5403E-23
0.00000045,5.4641E-23,5.4582E-23,3.576E-23,3.5616E-23
0.000000455,5.3782E-23,5.3724E-23,3.5902E-23,3.5756E-23
0.00000046,5.2803E-23,5.2747E-23,3.6043E-23,3.5895E-23
0.000000465,5.186E-23,5.1806E-23,3.623E-23,3.6081E-23
0.00000047,5.1103E-23,5.1051E-23,3.652E-23,3.6369E-23
0.000000475,5.0604E-23,5.0554E-23,3.7083E-23,3.6928E-23
0.00000048,5.0233E-23,5.0184E-23,3.8181E-23,3.802E-23
0.000000485,4.9958E-23,4.991E-23,3.9752E-23,3.9581E-23
0.00000049,4.9758E-23,4.9711E-23,4.1705E-23,4.1523E-23
0.000000495,4.9617E-23,4.957E-23,4.3927E-23,4.3731E-23
0.0000005,4.9743E-23,4.9695E-23,4.6493E-23,4.6277E-23
0.000000505,5.0243E-23,5.0187E-23,4.9366E-23,4.9116E-23
0.00000051,5.0443E-23,5.0377E-23,5.1484E-23,5.1186E-23
0.000000515,4.9708E-23,4.9629E-23,5.159E-23,5.1237E-23
0.00000052,4.8017E-23,4.793E-23,4.932E-23,4.892E-23
0.000000525,4.5962E-23,4.5874E-23,4.5484E-23,4.5053E-23
0.00000053,4.3648E-23,4.3565E-23,4.0507E-23,4.0054E-23
0.000000535,4.1387E-23,4.1317E-23,3.5138E-23,3.4673E-23
0.00000054,3.9414E-23,3.9362E-23,3.0009E-23,2.954E-23
0.000000545,3.7811E-23,3.7782E-23,2.5485E-23,2.5017E-23
0.00000055,3.6508E-23,3.6505E-23,2.1679E-23,2.1214E-23
0.000000555,3.5471E-23,3.5499E-23,1.8456E-23,1.7997E-23
0.00000056,3.4711E-23,3.4774E-23,1.5719E-23,1.5267E-23
0.000000565,3.4229E-23,3.433E-23,1.3407E-23,1.2963E-23
0.00000057,3.4033E-23,3.4176E-23,1.1462E-23,1.1029E-23
0.000000575,3.4145E-23,3.4335E-23,9.8317E-24,9.4111E-24
0.00000058,3.4603E-23,3.4844E-23,8.467E-24,8.0612E-24
0.000000585,3.5455E-23,3.5752E-23,7.3242E-24,6.9358E-24
0.00000059,3.6711E-23,3.7067E-23,6.3566E-24,5.9883E-24
0.000000595,3.8384E-23,3.8803E-23,5.5372E-24,5.1917E-24
0.0000006,4.0489E-23,4.0972E-23,4.8421E-24,4.5219E-24
0.000000605,4.3042E-23,4.3588E-23,4.2509E-24,3.9581E-24
0.00000061,4.6048E-23,4.6658E-23,3.7452E-24,3.4817E-24
0.000000615,4.9503E-23,5.0171E-23,3.3107E-24,3.0776E-24
0.00000062,5.3375E-23,5.4096E-23,2.9315E-24,2.7292E-24
0.000000625,5.7672E-23,5.844E-23,2.5908E-24,2.419E-24
0.00000063,6.2562E-23,6.3369E-23,2.2863E-24,2.1442E-24
0.000000635,6.8297E-23,6.9135E-23,2.0178E-24,1.9038E-24
0.00000064,7.5228E-23,7.6087E-23,1.7843E-24,1.6964E-24
0.000000645,8.3861E-23,8.4732E-23,1.5848E-24,1.5208E-24
0.00000065,9.4916E-23,9.5788E-23,1.4185E-24,1.3758E-24
0.000000655,1.0933E-22,1.1019E-22,1.2843E-24,1.2604E-24
0.00000066,1.2832E-22,1.2916E-22,1.1809E-24,1.1734E-24
0.000000665,1.5205E-22,1.5284E-22,1.0956E-24,1.1021E-24
0.00000067,1.8023E-22,1.8097E-22,1.0194E-24,1.0373E-24
0.000000675,2.1219E-22,2.1283E-22,9.5118E-25,9.786E-25
0.00000068,2.4529E-22,2.458E-22,8.9017E-25,9.2524E-25
0.000000685,2.7419E-22,2.7455E-22,8.3568E-25,8.7683E-25
0.00000069,2.916E-22,2.9179E-22,7.8703E-25,8.3294E-25
0.000000695,2.9161E-22,2.9163E-22,7.4362E-25,7.9317E-25
0.0000007,2.7386E-22,2.7375E-22,7.0495E-25,7.5722E-25
0.000000705,2.4393E-22,2.4375E-22,6.7057E-25,7.2479E-25
0.00000071,2.096E-22,2.0938E-22,6.4019E-25,6.9573E-25
0.000000715,1.7666E-22,1.7644E-22,6.1339E-25,6.6973E-25
0.00000072,1.4792E-22,1.4772E-22,5.8948E-25,6.462E-25
0.000000725,1.2399E-22,1.2381E-22,5.6802E-25,6.2477E-25
0.00000073,1.0452E-22,1.0436E-22,5.4853E-25,6.0504E-25
0.000000735,8.8777E-23,8.8642E-23,5.3063E-25,5.8668E-25
0.00000074,7.6046E-23,7.5933E-23,5.1399E-25,5.694E-25
0.000000745,6.5667E-23,6.5574E-23,4.9832E-25,5.5295E-25
0.00000075,5.7136E-23,5.706E-23,4.8339E-25,5.3713E-25
0.000000755,5.0072E-23,5.001E-23,4.6894E-25,5.2171E-25
0.00000076,4.4185E-23,4.4135E-23,4.5519E-25,5.0692E-25
0.000000765,3.9281E-23,3.9241E-23,4.4261E-25,4.9326E-25
0.00000077,3.5159E-23,3.5128E-23,4.3106E-25,4.8062E-25
0.000000775,3.1678E-23,3.1654E-23,4.2032E-25,4.6876E-25
0.00000078,2.8699E-23,2.8682E-23,4.1024E-25,4.5757E-25
0.000000785,2.6125E-23,2.6113E-23,4.0068E-25,4.4689E-25
0.00000079,2.3889E-23,2.3882E-23,3.915E-25,4.3659E-25
0.000000795,2.1927E-23,2.1923E-23,3.8261E-25,4.266E-25
0.0000008,2.0194E-23,2.0194E-23,3.7391E-25,4.1682E-25
0.000000805,1.865E-23,1.8653E-23,3.653E-25,4.0714E-25
0.00000081,1.7265E-23,1.727E-23,3.5672E-25,3.9751E-25
0.000000815,1.6017E-23,1.6024E-23,3.481E-25,3.8786E-25
0.00000082,1.488E-23,1.4888E-23,3.394E-25,3.7815E-25
0.000000825,1.3843E-23,1.3853E-23,3.3059E-25,3.6835E-25
0.00000083,1.2897E-23,1.2908E-23,3.2189E-25,3.5869E-25
0.000000835,1.2035E-23,1.2047E-23,3.1329E-25,3.4915E-25
0.00000084,1.1248E-23,1.1261E-23,3.0488E-25,3.3983E-25
0.000000845,1.0529E-23,1.0542E-23,2.9669E-25,3.3075E-25
0.00000085,9.8735E-24,9.887E-24,2.8877E-25,3.2197E-25
0.000000855,9.275E-24,9.2888E-24,2.8113E-25,3.1349E-25
0.00000086,8.7295E-24,8.7437E-24,2.7381E-25,3.0537E-25
0.000000865,8.23E-24,8.2444E-24,2.6684E-25,2.9761E-25
0.00000087,7.7765E-24,7.791E-24,2.6022E-25,2.9023E-25
0.000000875,7.3625E-24,7.3772E-24,2.5397E-25,2.8325E-25
0.00000088,6.9856E-24,7.0004E-24,2.4812E-25,2.7669E-25
0.000000885,6.6427E-24,6.6576E-24,2.4267E-25,2.7054E-25
0.00000089,6.3312E-24,6.3461E-24,2.3762E-25,2.6483E-25
0.000000895,6.0492E-24,6.064E-24,2.3304E-25,2.5961E-25
0.0000009,5.8E-24,5.8148E-24,2.2911E-25,2.5506E-25
0.000000905,5.5777E-24,5.5925E-24,2.2577E-25,2.5113E-25
0.00000091,5.3788E-24,5.3935E-24,2.2294E-25,2.4772E-25
0.000000915,5.2E-24,5.2147E-24,2.2052E-25,2.4475E-25
0.00000092,5.0375E-24,5.0522E-24,2.1845E-25,2.4214E-25
0.000000925,4.8897E-24,4.9042E-24,2.1667E-25,2.3984E-25
0.00000093,4.7531E-24,4.7676E-24,2.1511E-25,2.3778E-25
0.000000935,4.6262E-24,4.6406E-24,2.1372E-25,2.3589E-25
0.00000094,4.5073E-24,4.5215E-24,2.1245E-25,2.3415E-25
0.000000945,4.395E-24,4.4091E-24,2.1125E-25,2.3249E-25
0.00000095,4.2878E-24,4.3017E-24,2.1008E-25,2.3087E-25
0.000000955,4.1845E-24,4.1983E-24,2.089E-25,2.2926E-25
0.00000096,4.0846E-24,4.0983E-24,2.0768E-25,2.2761E-25
0.000000965,3.9865E-24,4.0001E-24,2.0638E-25,2.259E-25
0.00000097,3.8903E-24,3.9037E-24,2.0498E-25,2.241E-25
0.000000975,3.7945E-24,3.8077E-24,2.0344E-25,2.2217E-25
0.00000098,3.6995E-24,3.7125E-24,2.0174E-25,2.2009E-25
0.000000985,3.604E-24,3.6168E-24,1.9988E-25,2.1785E-25
0.00000099,3.5107E-24,3.5234E-24,1.9793E-25,2.1554E-25
0.000000995,3.4198E-24,3.4322E-24,1.9596E-25,2.1322E-25
0.000001,3.3316E-24,3.3439E-24,1.9399E-25,2.109E-25
